Distance (in),Time (s),X (in),Y (in),Velocity (in/s),Orientation (deg),Touch,Rotational Velocity (deg/s),Way X (in),Way Y (in),Way Velocity (in/s),Way Orientation (deg),Way Turn Radius (in),Touch this Point
0.0,0.0,326.8,307.70000000000005,12.0,0.0,0,0.0,326.8,307.70000000000005,12.0,0.0,3.0,0
0.9999999999999653,0.07791347989994359,325.88926665439357,307.2870051172225,13.669499072154505,0.13754623868411162,0,2.2246381588630832,280.976913119086,286.9203717079382,96.0,10.0,3.0,0.0
1.9999999999999305,0.14685879564918028,324.9785333087871,306.874010234445,15.33899814430901,0.374030274262653,0,4.219642999864691,175.91,275.86,96.0,21.0,3.0,0.0
2.9999999999998956,0.2086873847777627,324.0677999631807,306.46101535166747,17.008497216463514,0.6829558221579038,0,6.027985694834964,112.0,267.6,12.0,21.0,3.0,0.0
3.999999999999861,0.26473099689995516,323.15706661757423,306.04802046888994,18.67799628861802,1.0455995215552618,0,7.681607650934678,,,,,,
4.999999999999826,0.3159795504856001,322.2463332719678,305.6350255861124,20.347495360772523,1.448408944298853,0,9.204897796839273,,,,,,
5.999999999999791,0.3631888998661601,321.33559992636134,305.2220307033349,22.016994432927028,1.8813763773119514,0,10.616899653821179,,,,,,
6.999999999999757,0.4069492361169228,320.4248665807549,304.80903582055737,23.686493505081533,2.3369864942924083,0,11.932767078052064,,,,,,
7.999999999999722,0.44773020298395605,319.51413323514845,304.39604093777984,25.355992577236037,2.809514924397438,0,13.164756029717061,,,,,,
8.999999999999687,0.48591163349377137,318.603399889542,303.9830460550023,27.025491649390542,3.255884952295748,0,13.181190982625196,,,,,,
9.999999999999652,0.5218050772490815,317.69266654393556,303.5700511722248,28.694990721545047,3.6783693226132153,0,13.181190982625196,,,,,,
10.999999999999616,0.5556692423679007,316.7819331983291,303.15705628944727,30.36448979369955,4.079394479753113,0,13.181190982625196,,,,,,
11.99999999999958,0.5877213058631012,315.87119985272267,302.74406140666974,32.033988865854056,4.461035001870509,0,13.181190982625196,,,,,,
12.999999999999545,0.6181453515861706,314.9604665071162,302.3310665238922,33.70348793800856,4.82507849754142,0,13.181190982625196,,,,,,
13.99999999999951,0.6470987688168636,314.0497331615098,301.9180716411147,35.37298701016306,5.173076200315256,0,13.181190982625196,,,,,,
14.999999999999474,0.6747171756930537,313.13899981590333,301.50507675833717,37.04248608231756,5.506382883806744,0,13.181190982625196,,,,,,
15.999999999999439,0.7011182576007925,312.2282664702969,301.09208187555964,38.71198515447206,5.826188692811842,0,13.181190982625196,,,,,,
16.999999999999403,0.726404795359849,311.31753312469044,300.6790869927821,40.38148422662656,6.133544778654703,0,13.181190982625196,,,,,,
17.999999999999368,0.7506670801129226,310.406799779084,300.2660921100046,42.05098329878106,6.429384131710568,0,13.181190982625196,,,,,,
18.999999999999332,0.7739848581686387,309.49606643347755,299.85309722722707,43.720482370935564,6.714538651886472,0,13.181190982625196,,,,,,
19.999999999999297,0.7964289114750377,308.5853330878711,299.44010234444954,45.389981443090065,6.9897532438843015,0,13.181190982625196,,,,,,
20.99999999999926,0.818062352683179,307.67459974226466,299.027107461672,47.059480515244566,7.25415370488014,0,13.10467282892045,,,,,,
21.999999999999226,0.8389416944938396,306.7638663966582,298.6141125788945,48.72897958739907,7.497231465076986,0,12.453658357448292,,,,,,
22.99999999999919,0.8591177389054435,305.85313305105177,298.20111769611697,50.39847865955357,7.7207333263350915,0,11.82385800998042,,,,,,
23.999999999999154,0.8786363215756888,304.9423997054453,297.78812281333944,52.06797773170807,7.9262212382663115,0,11.213932840032564,,,,,,
24.99999999999912,0.8975389387307198,304.0316663598389,297.3751279305619,53.73747680386257,8.115096432053788,0,10.622666786151708,,,,,,
25.999999999999083,0.9158632781808055,303.12093301423243,296.9621330477844,55.40697587601707,8.288619823595953,0,10.048952080866897,,,,,,
26.999999999999048,0.9336436715217417,302.210199668626,296.54913816500687,57.07647494817157,8.447929348493735,0,9.49177676283705,,,,,,
27.999999999999012,0.950911481154604,301.29946632301954,296.13614328222934,58.745974020326074,8.594054759218741,0,8.95021393859637,,,,,,
28.999999999998977,0.9676954330825005,300.3887329774131,295.7231483994518,60.415473092480575,8.727930311749493,0,8.423412507764267,,,,,,
29.99999999999894,0.9840219043520713,299.47799963180665,295.3101535166743,62.084972164635076,8.850405688044095,0,7.9105891187322745,,,,,,
30.999999999998906,0.9999151723604173,298.5672662862002,294.89715863389677,63.75447123678958,8.962255436746304,0,7.411021163996028,,,,,,
31.99999999999887,1.0153976319416613,297.65653294059376,294.48416375111924,65.42397030894408,9.064187163624068,0,6.924040657958776,,,,,,
32.999999999998835,1.030489985104218,296.7457995949873,294.0711688683417,67.09346938109859,9.156848662497662,0,6.449028867073291,,,,,,
33.9999999999988,1.0452114074518177,295.8350662493809,293.6581739855642,68.7629684532531,9.240834144614583,0,5.985411584040307,,,,,,
34.999999999998764,1.0595796946441258,294.9243329037744,293.24517910278666,70.4324675254076,9.31668969787805,0,5.532654955537872,,,,,,
35.99999999999873,1.0736113917024974,294.013599558168,292.83218422000914,72.10196659756211,9.384918085733132,0,5.090261787460657,,,,,,
36.99999999999869,1.0873219075168878,293.10286621256154,292.4191893372316,73.77146566971662,9.445982977850475,0,4.65776826355645,,,,,,
37.99999999999866,1.1007256165408823,292.1921328669551,292.0061944544541,75.44096474187113,9.50031269023639,0,4.234741023169956,,,,,,
38.99999999999862,1.1138359493573797,291.28139952134865,291.59319957167656,77.11046381402564,9.548303500423321,0,3.8207745519438348,,,,,,
39.999999999998586,1.1266654735452002,290.3706661757422,291.18020468889904,78.77996288618014,9.590322593471125,0,3.415488846101251,,,,,,
40.99999999999855,1.1392259660669366,289.45993283013576,290.7672098061215,80.44946195833465,9.626710686251773,0,3.0185273165952733,,,,,,
41.999999999998515,1.1515284782229254,288.5491994845293,290.354214923344,82.11896103048916,9.657784370591878,0,2.629554904160308,,,,,,
42.99999999999848,1.1635833940690046,287.63846613892287,289.94122004056646,83.78846010264367,9.683838210063222,0,2.2482563803006688,,,,,,
43.999999999998444,1.1754004830717644,286.7277327933164,289.52822515778894,85.45795917479818,9.70514662034387,0,1.8743348126324317,,,,,,
44.99999999999841,1.18698894767021,285.81699944771,289.1152302750114,87.12745824695268,9.721965558962298,0,1.507510175862297,,,,,,
45.99999999999837,1.1983574663238867,284.90626610210353,288.7022353922339,88.7969573191072,9.734534046754678,0,1.1475180921274468,,,,,,
46.99999999999834,1.2095142325518873,283.9955327564971,288.28924050945636,90.4664563912617,9.74307554040591,0,0.794108686503737,,,,,,
47.9999999999983,1.2204669904025973,283.08479941089064,287.87624562667884,92.13595546341621,9.747799172921908,0,0.44704554527355,,,,,,
48.999999999998266,1.2312230667387445,282.1740660652842,287.4632507439013,93.80545453557072,10.0,0,0.10610476607699226,,,,,,
49.99999999999823,1.2417894006748262,281.26333271967775,287.0502558611238,95.47495360772523,10.0,0,0.0,,,,,,
50.31449337171194,1.2450777676258884,280.976913119086,286.9203717079382,95.80137071619055,10.004336212749424,0,0.4162764239446946,,,,,,
51.314493371711954,1.2555052217808405,279.9824083526879,286.8156804016541,96.0,10.013004152316851,0,0.8321221984729519,,,,,,
52.31449337171197,1.2659218884475072,278.9879035862898,286.71098909537,96.0,10.02600381870228,0,1.2479679730012094,,,,,,
53.31449337171198,1.276338555114174,277.9933988198917,286.6062977890859,96.0,10.043335211905713,0,1.6638137475294668,,,,,,
54.314493371712,1.2867552217808407,276.9988940534936,286.5016064828018,96.0,10.064998331927148,0,2.079659522057724,,,,,,
55.31449337171201,1.2971718884475074,276.0043892870955,286.39691517651767,96.0,10.090993178766585,0,2.4955052965859816,,,,,,
56.314493371712025,1.3075885551141742,275.00988452069737,286.29222387023356,96.0,10.121319752424025,0,2.9113510711142387,,,,,,
57.31449337171204,1.318005221780841,274.01537975429926,286.18753256394945,96.0,10.155978052899467,0,3.3271968456424963,,,,,,
58.314493371712054,1.3284218884475076,273.02087498790115,286.08284125766534,96.0,10.194968080192913,0,3.743042620170754,,,,,,
59.31449337171207,1.3388385551141744,272.02637022150304,285.9781499513812,96.0,10.23828983430436,0,4.158888394699011,,,,,,
60.31449337171208,1.3492552217808411,271.03186545510493,285.8734586450971,96.0,10.285943315233812,0,4.574734169227268,,,,,,
61.314493371712096,1.3596718884475079,270.0373606887068,285.768767338813,96.0,10.337928522981265,0,4.990579943755526,,,,,,
62.31449337171211,1.3700885551141746,269.0428559223087,285.6640760325289,96.0,10.394245457546722,0,5.406425718283783,,,,,,
63.314493371712125,1.3805052217808413,268.0483511559106,285.5593847262448,96.0,10.45489411893018,0,5.8222714928120505,,,,,,
64.31449337171215,1.3909218884475083,267.0538463895125,285.4546934199607,96.0,10.519874507131643,0,6.238117267340308,,,,,,
65.31449337171216,1.401338555114175,266.0593416231144,285.35000211367657,96.0,10.589186622151107,0,6.653963041868564,,,,,,
66.31449337171217,1.4117552217808418,265.0648368567163,285.24531080739246,96.0,10.662830463988575,0,7.069808816396821,,,,,,
67.31449337171219,1.4221718884475085,264.0703320903182,285.14061950110835,96.0,10.740806032644045,0,7.485654590925079,,,,,,
68.3144933717122,1.4325885551141753,263.07582732392007,285.03592819482424,96.0,10.823113328117518,0,7.9015003654533364,,,,,,
69.31449337171222,1.443005221780842,262.08132255752196,284.9312368885401,96.0,10.909752350408993,0,8.317346139981595,,,,,,
70.31449337171223,1.4534218884475087,261.08681779112385,284.826545582256,96.0,11.000723099518472,0,8.733191914509852,,,,,,
71.31449337171225,1.4638385551141755,260.09231302472574,284.7218542759719,96.0,11.096025575445953,0,9.14903768903811,,,,,,
72.31449337171226,1.4742552217808422,259.09780825832763,284.6171629696878,96.0,11.195659778191438,0,9.564883463566368,,,,,,
73.31449337171227,1.484671888447509,258.1033034919295,284.5124716634037,96.0,11.299625707754924,0,9.980729238094625,,,,,,
74.31449337171229,1.4950885551141757,257.1087987255314,284.4077803571196,96.0,11.40792336413641,0,10.396575012622883,,,,,,
75.3144933717123,1.5055052217808425,256.1142939591333,284.30308905083547,96.0,11.5205527473359,0,10.81242078715113,,,,,,
76.31449337171229,1.515921888447509,255.11978919273523,284.19839774455136,96.0,11.637513857353392,0,11.228266561679378,,,,,,
77.31449337171227,1.5263385551141755,254.12528442633715,284.09370643826725,96.0,11.758806694188886,0,11.644112336207627,,,,,,
78.31449337171226,1.536755221780842,253.13077965993907,283.98901513198314,96.0,11.884431257842383,0,12.059958110735876,,,,,,
79.31449337171225,1.5471718884475085,252.13627489354099,283.884323825699,96.0,12.014387548313882,0,12.475803885264124,,,,,,
80.31449337171223,1.557588555114175,251.1417701271429,283.7796325194149,96.0,12.148675565603384,0,12.891649659792371,,,,,,
81.31449337171222,1.5680052217808416,250.14726536074483,283.6749412131308,96.0,12.287295309710888,0,13.30749543432062,,,,,,
82.3144933717122,1.578421888447508,249.15276059434674,283.5702499068467,96.0,12.430246780636395,0,13.72334120884887,,,,,,
83.31449337171219,1.5888385551141746,248.15825582794866,283.4655586005626,96.0,12.577529978379905,0,14.139186983377119,,,,,,
84.31449337171217,1.5992552217808411,247.16375106155058,283.3608672942785,96.0,12.729144902941417,0,14.555032757905368,,,,,,
85.31449337171216,1.6096718884475076,246.1692462951525,283.25617598799437,96.0,12.885091554320931,0,14.970878532433616,,,,,,
86.31449337171215,1.6200885551141742,245.17474152875442,283.15148468171026,96.0,13.045270052106321,0,15.377135787397663,,,,,,
87.31449337171213,1.6305052217808407,244.18023676235634,283.04679337542615,96.0,13.205448549891711,0,15.377135787397663,,,,,,
88.31449337171212,1.6409218884475072,243.18573199595826,282.94210206914204,96.0,13.365627047677101,0,15.377135787397663,,,,,,
89.3144933717121,1.6513385551141737,242.19122722956018,282.8374107628579,96.0,13.525805545462491,0,15.377135787397663,,,,,,
90.31449337171209,1.6617552217808402,241.1967224631621,282.7327194565738,96.0,13.685984043247881,0,15.377135787397663,,,,,,
91.31449337171208,1.6721718884475067,240.20221769676402,282.6280281502897,96.0,13.846162541033271,0,15.377135787397663,,,,,,
92.31449337171206,1.6825885551141733,239.20771293036594,282.5233368440056,96.0,14.006341038818661,0,15.377135787397663,,,,,,
93.31449337171205,1.6930052217808398,238.21320816396786,282.4186455377215,96.0,14.166519536604051,0,15.377135787397663,,,,,,
94.31449337171203,1.7034218884475063,237.21870339756978,282.3139542314374,96.0,14.326698034389441,0,15.377135787397663,,,,,,
95.31449337171202,1.7138385551141728,236.2241986311717,282.20926292515327,96.0,14.486876532174831,0,15.377135787397663,,,,,,
96.314493371712,1.7242552217808393,235.22969386477362,282.10457161886916,96.0,14.647055029960221,0,15.377135787397663,,,,,,
97.31449337171199,1.7346718884475059,234.23518909837554,281.99988031258505,96.0,14.80723352774561,0,15.377135787397663,,,,,,
98.31449337171198,1.7450885551141724,233.24068433197746,281.89518900630094,96.0,14.967412025531,0,15.377135787397663,,,,,,
99.31449337171196,1.755505221780839,232.24617956557938,281.79049770001683,96.0,15.12759052331639,0,15.377135787397663,,,,,,
100.31449337171195,1.7659218884475054,231.2516747991813,281.6858063937327,96.0,15.28776902110178,0,15.377135787397663,,,,,,
101.31449337171193,1.776338555114172,230.25717003278322,281.5811150874486,96.0,15.44794751888717,0,15.377135787397663,,,,,,
102.31449337171192,1.7867552217808385,229.26266526638514,281.4764237811645,96.0,15.60812601667256,0,15.377135787397663,,,,,,
103.3144933717119,1.797171888447505,228.26816049998706,281.3717324748804,96.0,15.76830451445795,0,15.377135787397663,,,,,,
104.31449337171189,1.8075885551141715,227.27365573358898,281.2670411685963,96.0,15.92848301224334,0,15.377135787397663,,,,,,
105.31449337171188,1.818005221780838,226.2791509671909,281.16234986231217,96.0,16.088661510028732,0,15.377135787397663,,,,,,
106.31449337171186,1.8284218884475045,225.28464620079282,281.05765855602806,96.0,16.248840007814124,0,15.377135787397663,,,,,,
107.31449337171185,1.838838555114171,224.29014143439474,280.95296724974395,96.0,16.409018505599516,0,15.377135787397663,,,,,,
108.31449337171183,1.8492552217808376,223.29563666799666,280.84827594345984,96.0,16.569197003384907,0,15.377135787397663,,,,,,
109.31449337171182,1.859671888447504,222.30113190159858,280.74358463717573,96.0,16.7293755011703,0,15.377135787397663,,,,,,
110.3144933717118,1.8700885551141706,221.3066271352005,280.6388933308916,96.0,16.88955399895569,0,15.377135787397663,,,,,,
111.31449337171179,1.8805052217808371,220.31212236880242,280.5342020246075,96.0,17.049732496741083,0,15.377135787397663,,,,,,
112.31449337171178,1.8909218884475036,219.31761760240434,280.4295107183234,96.0,17.209910994526474,0,15.377135787397663,,,,,,
113.31449337171176,1.9013385551141702,218.32311283600626,280.3248194120393,96.0,17.370089492311866,0,15.377135787397663,,,,,,
114.31449337171175,1.9117552217808367,217.32860806960818,280.2201281057552,96.0,17.530267990097258,0,15.377135787397663,,,,,,
115.31449337171173,1.9221718884475032,216.3341033032101,280.11543679947107,96.0,17.69044648788265,0,15.377135787397663,,,,,,
116.31449337171172,1.9325885551141697,215.33959853681202,280.01074549318696,96.0,17.85062498566804,0,15.377135787397663,,,,,,
117.3144933717117,1.9430052217808362,214.34509377041394,279.90605418690285,96.0,18.010803483453433,0,15.377135787397663,,,,,,
118.31449337171169,1.9534218884475028,213.35058900401586,279.80136288061874,96.0,18.169562697895234,0,15.24088458641322,,,,,,
119.31449337171168,1.9638385551141693,212.35608423761778,279.69667157433463,96.0,18.323990185519033,0,14.825038811884971,,,,,,
120.31449337171166,1.9742552217808358,211.3615794712197,279.5919802680505,96.0,18.47408594632483,0,14.409193037356722,,,,,,
121.31449337171165,1.9846718884475023,210.36707470482162,279.4872889617664,96.0,18.619849980312626,0,13.993347262828474,,,,,,
122.31449337171163,1.9950885551141688,209.37256993842354,279.3825976554823,96.0,18.76128228748242,0,13.577501488300225,,,,,,
123.31449337171162,2.0055052217808353,208.37806517202546,279.2779063491982,96.0,18.898382867834208,0,13.161655713771976,,,,,,
124.3144933717116,2.015921888447502,207.38356040562738,279.1732150429141,96.0,19.031151721367994,0,12.745809939243728,,,,,,
125.31449337171159,2.0263385551141684,206.3890556392293,279.06852373662997,96.0,19.15958884808378,0,12.329964164715479,,,,,,
126.31449337171158,2.036755221780835,205.39455087283122,278.96383243034586,96.0,19.28369424798156,0,11.91411839018723,,,,,,
127.31449337171156,2.0471718884475014,204.40004610643314,278.85914112406175,96.0,19.403467921061342,0,11.498272615658982,,,,,,
128.31449337171156,2.057588555114168,203.40554134003506,278.75444981777764,96.0,19.518909867323117,0,11.082426841130733,,,,,,
129.31449337171156,2.0680052217808345,202.41103657363698,278.64975851149353,96.0,19.63002008676689,0,10.666581066602483,,,,,,
130.31449337171156,2.078421888447501,201.4165318072389,278.5450672052094,96.0,19.736798579392662,0,10.250735292074236,,,,,,
131.31449337171156,2.0888385551141675,200.42202704084082,278.4403758989253,96.0,19.839245345200432,0,9.834889517545985,,,,,,
132.31449337171156,2.099255221780834,199.42752227444274,278.3356845926412,96.0,19.9373603841902,0,9.419043743017737,,,,,,
133.31449337171156,2.1096718884475005,198.43301750804466,278.2309932863571,96.0,20.031143696361966,0,9.003197968489488,,,,,,
134.31449337171156,2.120088555114167,197.43851274164658,278.126301980073,96.0,20.120595281715726,0,8.587352193961241,,,,,,
135.31449337171156,2.1305052217808336,196.4440079752485,278.02161067378887,96.0,20.205715140251485,0,8.17150641943299,,,,,,
136.31449337171156,2.1409218884475,195.44950320885042,277.91691936750476,96.0,20.28650327196924,0,7.755660644904742,,,,,,
137.31449337171156,2.1513385551141666,194.45499844245234,277.81222806122065,96.0,20.362959676868996,0,7.339814870376493,,,,,,
138.31449337171156,2.161755221780833,193.46049367605426,277.70753675493654,96.0,20.43508435495075,0,6.9239690958482445,,,,,,
139.31449337171156,2.1721718884474996,192.46598890965618,277.60284544865243,96.0,20.502877306214497,0,6.508123321319996,,,,,,
140.31449337171156,2.182588555114166,191.4714841432581,277.4981541423683,96.0,20.566338530660243,0,6.092277546791747,,,,,,
141.31449337171156,2.1930052217808327,190.47697937686002,277.3934628360842,96.0,20.625468028287987,0,5.676431772263497,,,,,,
142.31449337171156,2.203421888447499,189.48247461046194,277.2887715298001,96.0,20.68026579909773,0,5.26058599773525,,,,,,
143.31449337171156,2.2138385551141657,188.48796984406385,277.184080223516,96.0,20.73073184308947,0,4.844740223207001,,,,,,
144.31449337171156,2.2242552217808322,187.49346507766577,277.0793889172319,96.0,20.776866160263204,0,4.428894448678751,,,,,,
145.31449337171156,2.2346718884474988,186.4989603112677,276.97469761094777,96.0,20.818668750618937,0,4.013048674150502,,,,,,
146.31449337171156,2.2450885551141653,185.50445554486961,276.87000630466366,96.0,20.856139614156668,0,3.5972028996222534,,,,,,
147.31449337171156,2.255505221780832,184.50995077847153,276.76531499837955,96.0,20.889278750876397,0,3.1813571250940047,,,,,,
148.31449337171156,2.2659218884474983,183.51544601207345,276.66062369209544,96.0,20.918086160778124,0,2.765511350565756,,,,,,
149.31449337171156,2.276338555114165,182.52094124567537,276.55593238581133,96.0,20.94256184386185,0,2.3496655760375074,,,,,,
150.31449337171156,2.2867552217808313,181.5264364792773,276.4512410795272,96.0,20.96270580012757,0,1.9338198015092587,,,,,,
151.31449337171156,2.297171888447498,180.5319317128792,276.3465497732431,96.0,20.978518029575287,0,1.5179740269810118,,,,,,
