Distance (in),Time (s),X (in),Y (in),Velocity (in/s),Orientation (deg),Touch,Rotational Velocity (deg/s),Way X (in),Way Y (in),Way Velocity (in/s),Way Orientation (deg),Way Turn Radius (in),Touch this Point
0.0,0.0,57.0,101.60000000000002,12.0,0.0,0,0.0,57.0,101.60000000000002,12.0,0.0,3.0,0
0.9999999999999974,0.08115932165057753,57.31622776601684,102.54868329805053,12.64288709325065,0.0,0,0.0,75.0,155.60000000000002,48.0,0.0,10.0,0
1.999999999999995,0.15829404057884794,57.632455532033674,103.49736659610105,13.2857741865013,0.0,0,0.0,110.0,155.60000000000002,12.0,0.0,3.0,0
2.9999999999999925,0.23178444983168942,57.94868329805051,104.44604989415156,13.92866127975195,0.0,0,0.0,,,,,,
3.99999999999999,0.3019593722048199,58.26491106406735,105.39473319220207,14.5715483730026,0.0,0,0.0,,,,,,
4.999999999999988,0.3691050475262486,58.581138830084186,106.34341649025258,15.21443546625325,0.0,0,0.0,,,,,,
5.999999999999985,0.43347218112525776,58.89736659610102,107.29209978830309,15.8573225595039,0.0,0,0.0,,,,,,
6.999999999999982,0.495281591894918,59.21359436211786,108.2407830863536,16.50020965275455,0.0,0,0.0,,,,,,
7.99999999999998,0.5547287810711199,59.5298221281347,109.18946638440411,17.1430967460052,0.0,0,0.0,,,,,,
8.999999999999977,0.6119876601051112,59.846049894151534,110.13814968245462,17.78598383925585,0.0,0,0.0,,,,,,
9.999999999999975,0.6672136167630804,60.16227766016837,111.08683298050514,18.4288709325065,0.0,0,0.0,,,,,,
10.999999999999973,0.7205460555929971,60.47850542618521,112.03551627855565,19.07175802575715,0.0,0,0.0,,,,,,
11.999999999999972,0.772110517307461,60.794733192202045,112.98419957660616,19.7146451190078,0.0,0,-0.0,,,,,,
12.99999999999997,0.8220204581491208,61.11096095821888,113.93288287465667,20.357532212258448,0.0,0,-0.0,,,,,,
13.999999999999968,0.8703787526633158,61.42718872423572,114.88156617270718,21.000419305509098,0.0,0,-0.0,,,,,,
14.999999999999966,0.9172789699161387,61.74341649025256,115.83024947075769,21.643306398759748,0.0,0,-0.0,,,,,,
15.999999999999964,0.9628064629441258,62.059644256269394,116.7789327688082,22.286193492010398,0.0,0,-0.0,,,,,,
16.99999999999996,1.0070393033020557,62.37587202228623,117.72761606685872,22.929080585261048,0.0,0,-0.0,,,,,,
17.999999999999957,1.0500490864074856,62.69209978830307,118.67629936490923,23.571967678511697,0.0,0,-0.0,,,,,,
18.999999999999954,1.0919016285404377,63.008327554319905,119.62498266295974,24.214854771762347,0.0,0,-0.0,,,,,,
19.99999999999995,1.1326575725310024,63.32455532033674,120.57366596101025,24.857741865012997,0.0,0,-0.0,,,,,,
20.999999999999947,1.1723729161234038,63.64078308635358,121.52234925906076,25.500628958263647,0.0,0,-0.0,,,,,,
21.999999999999943,1.2110994745671795,63.957010852370416,122.47103255711127,26.143516051514297,0.0,0,-0.0,,,,,,
22.99999999999994,1.248885287022011,64.27323861838725,123.41971585516178,26.786403144764947,0.0,0,-0.0,,,,,,
23.999999999999936,1.2857749747712637,64.58946638440409,124.3683991532123,27.429290238015597,0.0,0,-0.0,,,,,,
24.999999999999932,1.3218100579427747,64.90569415042093,125.3170824512628,28.072177331266246,0.0,0,-0.0,,,,,,
25.99999999999993,1.3570292363737524,65.22192191643776,126.26576574931332,28.715064424516896,0.0,0,-0.0,,,,,,
26.999999999999925,1.3914686393830207,65.5381496824546,127.21444904736383,29.357951517767546,0.0,0,-0.0,,,,,,
27.999999999999922,1.4251620484916088,65.85437744847144,128.16313234541434,30.000838611018196,0.0,0,0.0,,,,,,
28.999999999999932,1.4581410965329493,66.17060521448828,129.11181564346487,30.643725704268856,0.0,0,0.0,,,,,,
29.999999999999943,1.4904354460938236,66.48683298050511,130.0604989415154,31.286612797519517,0.0,0,0.0,,,,,,
30.999999999999954,1.5220729498084502,66.80306074652195,131.00918223956592,31.929499890770177,0.0,0,0.0,,,,,,
31.999999999999964,1.5530797946761417,67.11928851253879,131.95786553761644,32.57238698402084,0.0,0,0.0,,,,,,
32.99999999999998,1.5834806322760175,67.43551627855562,132.90654883566697,33.2152740772715,0.0,0,0.0,,,,,,
33.99999999999999,1.6132986965008675,67.75174404457246,133.8552321337175,33.858161170522166,0.0,0,0.0,,,,,,
35.00000000000001,1.6425559102186824,68.0679718105893,134.80391543176802,34.50104826377283,0.0,0,0.0,,,,,,
36.00000000000002,1.6712729820883472,68.38419957660614,135.75259872981854,35.143935357023494,0.0,0,0.0,,,,,,
37.000000000000036,1.6994694946003601,68.70042734262297,136.70128202786907,35.78682245027416,0.0,0,0.0,,,,,,
38.00000000000005,1.7271639842799775,69.01665510863981,137.6499653259196,36.42970954352482,0.0,0,0.0,,,,,,
39.000000000000064,1.7543740148753992,69.33288287465665,138.59864862397012,37.072596636775486,0.0,0,0.0,,,,,,
40.00000000000008,1.7811162442546122,69.64911064067348,139.54733192202065,37.71548373002615,0.0,0,0.0,,,,,,
41.00000000000009,1.8074064856488967,69.96533840669032,140.49601522007117,38.358370823276815,0.0,0,0.0,,,,,,
42.00000000000011,1.8332597638067707,70.28156617270716,141.4446985181217,39.00125791652748,0.0,0,0.0,,,,,,
43.00000000000012,1.8586903665576284,70.597793938724,142.39338181617222,39.64414500977814,0.0,0,0.0,,,,,,
44.000000000000135,1.8837118922281115,70.91402170474083,143.34206511422275,40.28703210302881,0.0,0,0.0,,,,,,
45.00000000000015,1.9083372933051532,71.23024947075767,144.29074841227327,40.92991919627947,0.0,0,0.0,,,,,,
46.00000000000016,1.932578916696662,71.5464772367745,145.2394317103238,41.572806289530135,0.0,0,0.0,,,,,,
47.00000000000018,1.9564485409031085,71.86270500279134,146.18811500837433,42.2156933827808,0.0,0,0.0,,,,,,
48.00000000000019,1.9799574103801398,72.17893276880818,147.13679830642485,42.85858047603146,0.0,0,0.0,,,,,,
49.000000000000206,2.0031162673431493,72.49516053482502,148.08548160447538,43.50146756928213,0.0,0,0.0,,,,,,
49.9998907970087,2.0259329075998225,72.81524477257732,149.03275542269523,44.144284457339,0.0,0,0.0,,,,,,
50.99947418242226,2.0484128363169036,73.20487109033948,149.95327607803216,44.78690371444917,0.0,0,0.0,,,,,,
51.99905756783585,2.0705725121571485,73.68444962153103,150.83030023779918,45.42952297155935,0.0,0,0.0,,,,,,
52.9986409532494,2.0924209317072453,74.24918857599589,151.65506496649746,46.07214222866951,0.0,0,0.0,,,,,,
53.99822433866298,2.1139667177050145,74.89344526877893,152.4193294875889,46.7147614857797,0.0,0,0.0,,,,,,
54.99780772407655,2.1352181394698935,75.61078249996882,153.11545752261097,47.35738074288987,0.0,0,0.0,,,,,,
55.99739110949012,2.156559638166529,76.39403287307165,153.73649359034707,46.317707368064134,0.0,0,0.0,,,,,,
56.99697449490368,2.1783856176401963,77.23537040926755,154.2762325036956,45.278033993238395,0.0,0,0.0,,,,,,
57.99655788031725,2.2007185855786404,78.12638874200404,154.7292813698484,44.238360618412656,0.0,0,0.0,,,,,,
58.99614126573081,2.22358265544045,79.05818511063194,155.09111347429285,43.19868724358692,0.0,0,0.0,,,,,,
59.99572465114438,2.247003702923861,80.02144931384684,155.35811351024716,42.15901386876118,0.0,0,0.0,,,,,,
60.995308036557944,2.271009541969627,81.00655673414303,155.52761370161056,41.11934049393544,0.0,0,0.0,,,,,,
61.995308036557944,2.295640516312492,82.00655673414303,155.52761370161056,40.07923379548768,0.0,0,0.0,,,,,,
62.995308036557944,2.3209190986470873,83.00655673414303,155.52761370161056,39.03912709703992,0.0,0,0.0,,,,,,
63.995308036557944,2.3468802628886523,84.00655673414303,155.52761370161056,37.999020398592165,0.0,0,0.0,,,,,,
64.99530803655794,2.373561894713851,85.00655673414303,155.52761370161056,36.95891370014441,0.0,0,0.0,,,,,,
65.99530803655794,2.401005124012726,86.00655673414303,155.52761370161056,35.91880700169665,0.0,0,0.0,,,,,,
66.99530803655794,2.4292547061821295,87.00655673414303,155.52761370161056,34.87870030324889,0.0,0,0.0,,,,,,
67.99530803655794,2.458359461131825,88.00655673414303,155.52761370161056,33.83859360480113,0.0,0,0.0,,,,,,
68.99530803655794,2.488372780812978,89.00655673414303,155.52761370161056,32.798486906353375,0.0,0,0.0,,,,,,
69.99530803655794,2.519353218516998,90.00655673414303,155.52761370161056,31.758380207905613,0.0,0,0.0,,,,,,
70.99530803655794,2.551365176280417,91.00655673414303,155.52761370161056,30.718273509457852,0.0,0,0.0,,,,,,
71.99530803655794,2.5844797106699913,92.00655673414303,155.52761370161056,29.67816681101009,0.0,0,0.0,,,,,,
72.99530803655794,2.6187754822846596,93.00655673414303,155.52761370161056,28.63806011256233,0.0,0,-0.0,,,,,,
73.99530803655794,2.6543398808715413,94.00655673414303,155.52761370161056,27.597953414114567,0.0,0,-0.0,,,,,,
74.99530803655794,2.6912703665297184,95.00655673414303,155.52761370161056,26.557846715666805,0.0,0,-0.0,,,,,,
75.99530803655794,2.729676078792908,96.00655673414303,155.52761370161056,25.517740017219044,0.0,0,-0.0,,,,,,
76.99530803655794,2.7696797804666438,97.00655673414303,155.52761370161056,24.477633318771282,0.0,0,-0.0,,,,,,
77.99530803655794,2.8114202234191916,98.00655673414303,155.52761370161056,23.43752662032352,0.0,0,-0.0,,,,,,
78.99530803655794,2.8550550512281134,99.00655673414303,155.52761370161056,22.39741992187576,0.0,0,-0.0,,,,,,
79.99530803655794,2.9007643918235244,100.00655673414303,155.52761370161056,21.357313223427997,0.0,0,-0.0,,,,,,
80.99530803655794,2.9487553467781136,101.00655673414303,155.52761370161056,20.317206524980236,0.0,0,-0.0,,,,,,
81.99530803655794,2.999267659893143,102.00655673414303,155.52761370161056,19.277099826532474,0.0,0,-0.0,,,,,,
82.99530803655794,3.0525809574429332,103.00655673414303,155.52761370161056,18.236993128084713,0.0,0,0.0,,,,,,
83.99530803655794,3.1090241136810755,104.00655673414303,155.52761370161056,17.19688642963695,0.0,0,0.0,,,,,,
84.99530803655794,3.168987536902868,105.00655673414303,155.52761370161056,16.15677973118919,0.0,0,0.0,,,,,,
85.99530803655794,3.2329395416622115,106.00655673414303,155.52761370161056,15.116673032741428,0.0,0,0.0,,,,,,
86.99530803655794,3.3014485541378327,107.00655673414303,155.52761370161056,14.076566334293666,0.0,0,0.0,,,,,,
87.99530803655794,3.375213835895858,108.00655673414303,155.52761370161056,13.036459635845905,0.0,0,0.0,,,,,,
88.99530803655794,3.4550973349644125,109.00655673414303,155.52761370161056,12.0,0.0,0,0.0,,,,,,
89.99138499074928,3.5381037478136905,110.0,155.60000000000002,12.0,0.0,0,0.0,,,,,,
