Distance (in),Time (s),X (in),Y (in),Velocity (in/s),Orientation (deg),Touch,Rotational Velocity (deg/s),Way X (in),Way Y (in),Way Velocity (in/s),Way Orientation (deg),Way Turn Radius (in),Touch this Point
0.0,0.0,57.0,214.0,12.0,0.0,0,0.0,57.0,214.0,12.0,0.0,3.0,0
1.0000000000000109,0.0811593216505786,57.31622776601684,213.05131670194947,12.642887093250655,0.0,0,0.0,75.0,160.0,48.0,0.0,10.0,0
2.0000000000000218,0.15829404057885,57.632455532033674,212.10263340389895,13.28577418650131,0.0,0,0.0,110.0,160.0,12.0,0.0,3.0,0
3.000000000000033,0.23178444983169239,57.94868329805051,211.15395010584842,13.928661279751966,0.0,0,0.0,,,,,,
4.0000000000000435,0.3019593722048237,58.26491106406735,210.2052668077979,14.57154837300262,0.0,0,0.0,,,,,,
5.000000000000054,0.36910504752625317,58.581138830084186,209.25658350974737,15.214435466253276,0.0,0,0.0,,,,,,
6.000000000000065,0.43347218112526303,58.89736659610102,208.30790021169685,15.857322559503931,0.0,0,0.0,,,,,,
7.0000000000000755,0.49528159189492393,59.21359436211786,207.35921691364632,16.500209652754585,0.0,0,0.0,,,,,,
8.000000000000087,0.5547287810711266,59.5298221281347,206.4105336155958,17.14309674600524,0.0,0,0.0,,,,,,
9.000000000000098,0.6119876601051184,59.846049894151534,205.46185031754527,17.785983839255895,0.0,0,0.0,,,,,,
10.000000000000108,0.6672136167630881,60.16227766016837,204.51316701949474,18.42887093250655,0.0,0,0.0,,,,,,
11.000000000000119,0.7205460555930052,60.47850542618521,203.56448372144422,19.0717580257572,0.0,0,0.0,,,,,,
12.00000000000013,0.7721105173074697,60.794733192202045,202.6158004233937,19.714645119007855,0.0,0,-0.0,,,,,,
13.00000000000014,0.8220204581491299,61.11096095821888,201.66711712534317,20.35753221225851,0.0,0,-0.0,,,,,,
14.000000000000151,0.8703787526633253,61.42718872423572,200.71843382729264,21.000419305509162,0.0,0,-0.0,,,,,,
15.000000000000162,0.9172789699161487,61.74341649025256,199.76975052924212,21.643306398759815,0.0,0,-0.0,,,,,,
16.000000000000174,0.9628064629441362,62.059644256269394,198.8210672311916,22.286193492010472,0.0,0,-0.0,,,,,,
17.000000000000185,1.0070393033020666,62.37587202228623,197.87238393314107,22.929080585261126,0.0,0,-0.0,,,,,,
18.000000000000195,1.050049086407497,62.69209978830307,196.92370063509054,23.57196767851178,0.0,0,-0.0,,,,,,
19.000000000000206,1.0919016285404495,63.008327554319905,195.97501733704001,24.214854771762433,0.0,0,-0.0,,,,,,
20.000000000000217,1.1326575725310146,63.32455532033674,195.0263340389895,24.857741865013086,0.0,0,-0.0,,,,,,
21.000000000000227,1.1723729161234164,63.64078308635358,194.07765074093896,25.50062895826374,0.0,0,-0.0,,,,,,
22.000000000000238,1.2110994745671926,63.957010852370416,193.12896744288844,26.143516051514393,0.0,0,-0.0,,,,,,
23.00000000000025,1.2488852870220244,64.27323861838725,192.1802841448379,26.786403144765046,0.0,0,-0.0,,,,,,
24.00000000000026,1.2857749747712774,64.58946638440409,191.2316008467874,27.4292902380157,0.0,0,-0.0,,,,,,
25.00000000000027,1.321810057942789,64.90569415042093,190.28291754873686,28.072177331266353,0.0,0,-0.0,,,,,,
26.00000000000028,1.357029236373767,65.22192191643776,189.33423425068634,28.715064424517006,0.0,0,-0.0,,,,,,
27.00000000000029,1.3914686393830356,65.5381496824546,188.3855509526358,29.35795151776766,0.0,0,-0.0,,,,,,
28.000000000000302,1.4251620484916239,65.85437744847144,187.43686765458528,30.000838611018313,0.0,0,0.0,,,,,,
29.000000000000313,1.4581410965329644,66.17060521448828,186.48818435653476,30.643725704268967,0.0,0,0.0,,,,,,
30.000000000000323,1.4904354460938385,66.48683298050511,185.53950105848423,31.28661279751962,0.0,0,0.0,,,,,,
31.000000000000334,1.522072949808465,66.80306074652195,184.5908177604337,31.929499890770273,0.0,0,0.0,,,,,,
32.00000000000035,1.5530797946761565,67.11928851253879,183.64213446238318,32.57238698402093,0.0,0,0.0,,,,,,
33.00000000000036,1.5834806322760324,67.43551627855562,182.69345116433266,33.21527407727159,0.0,0,0.0,,,,,,
34.00000000000038,1.6132986965008824,67.75174404457246,181.74476786628213,33.858161170522244,0.0,0,0.0,,,,,,
35.00000000000039,1.642555910218697,68.0679718105893,180.7960845682316,34.5010482637729,0.0,0,0.0,,,,,,
36.000000000000405,1.6712729820883616,68.38419957660614,179.84740127018108,35.14393535702356,0.0,0,0.0,,,,,,
37.00000000000042,1.6994694946003746,68.70042734262297,178.89871797213056,35.786822450274215,0.0,0,0.0,,,,,,
38.00000000000043,1.727163984279992,69.01665510863981,177.95003467408003,36.42970954352487,0.0,0,0.0,,,,,,
39.00000000000045,1.7543740148754137,69.33288287465665,177.0013513760295,37.07259663677553,0.0,0,0.0,,,,,,
40.00000000000046,1.7811162442546267,69.64911064067348,176.05266807797898,37.715483730026186,0.0,0,0.0,,,,,,
41.000000000000476,1.8074064856489112,69.96533840669032,175.10398477992845,38.35837082327684,0.0,0,0.0,,,,,,
42.00000000000049,1.8332597638067851,70.28156617270716,174.15530148187793,39.0012579165275,0.0,0,0.0,,,,,,
43.000000000000504,1.8586903665576429,70.597793938724,173.2066181838274,39.64414500977816,0.0,0,0.0,,,,,,
44.00000000000052,1.883711892228126,70.91402170474083,172.25793488577688,40.287032103028814,0.0,0,0.0,,,,,,
45.00000000000053,1.9083372933051677,71.23024947075767,171.30925158772635,40.92991919627947,0.0,0,0.0,,,,,,
46.00000000000055,1.9325789166966765,71.5464772367745,170.36056828967583,41.57280628953013,0.0,0,0.0,,,,,,
47.00000000000056,1.956448540903123,71.86270500279134,169.4118849916253,42.215693382780785,0.0,0,0.0,,,,,,
48.000000000000576,1.9799574103801543,72.17893276880818,168.46320169357477,42.85858047603144,0.0,0,0.0,,,,,,
49.00000000000059,2.0031162673431635,72.49516053482502,167.51451839552425,43.5014675692821,0.0,0,0.0,,,,,,
49.99989079700908,2.0259329075998367,72.81524477257744,166.56724457730445,44.14428445733896,0.0,0,0.0,,,,,,
50.99947418242265,2.048412836316918,73.20487109033964,165.64672392196752,44.78690371444914,0.0,0,0.0,,,,,,
51.99905756783623,2.0705725121571628,73.68444962153123,164.76969976220053,45.429522971559315,0.0,0,0.0,,,,,,
52.9986409532498,2.09242093170726,74.24918857599611,163.94493503350225,46.072142228669485,0.0,0,0.0,,,,,,
53.99822433866335,2.1139667177050288,74.89344526877919,163.18067051241087,46.71476148577965,0.0,0,0.0,,,,,,
54.997807724076914,2.1352181394699077,75.61078249996909,162.48454247738883,47.357380742889816,0.0,0,0.0,,,,,,
55.99739110949048,2.1565596381665433,76.39403287307195,161.86350640965276,46.31770736806407,0.0,0,0.0,,,,,,
56.99697449490406,2.178385617640211,77.23537040926786,161.3237674963042,45.27803399323831,0.0,0,0.0,,,,,,
57.996557880317624,2.2007185855786555,78.12638874200438,160.8707186301515,44.238360618412564,0.0,0,0.0,,,,,,
58.9961412657312,2.223582655440465,79.0581851106323,160.50888652570706,43.19868724358681,0.0,0,0.0,,,,,,
59.995724651144755,2.2470037029238763,80.0214493138472,160.24188648975277,42.15901386876107,0.0,0,0.0,,,,,,
60.99530803655833,2.2710095419696423,81.0065567341434,160.0723862983894,41.11934049393532,0.0,0,0.0,,,,,,
61.99530803655833,2.2956405163125075,82.0065567341434,160.0723862983894,40.079233795487546,0.0,0,0.0,,,,,,
62.99530803655833,2.3209190986471033,83.0065567341434,160.0723862983894,39.039127097039774,0.0,0,0.0,,,,,,
63.99530803655833,2.3468802628886682,84.0065567341434,160.0723862983894,37.999020398592,0.0,0,0.0,,,,,,
64.99530803655833,2.373561894713867,85.0065567341434,160.0723862983894,36.95891370014423,0.0,0,0.0,,,,,,
65.99530803655833,2.4010051240127424,86.0065567341434,160.0723862983894,35.91880700169646,0.0,0,0.0,,,,,,
66.99530803655833,2.429254706182146,87.0065567341434,160.0723862983894,34.878700303248685,0.0,0,0.0,,,,,,
67.99530803655833,2.458359461131842,88.0065567341434,160.0723862983894,33.83859360480091,0.0,0,0.0,,,,,,
68.99530803655833,2.4883727808129947,89.0065567341434,160.0723862983894,32.79848690635314,0.0,0,0.0,,,,,,
69.99530803655833,2.519353218517015,90.0065567341434,160.0723862983894,31.75838020790537,0.0,0,0.0,,,,,,
70.99530803655833,2.5513651762804344,91.0065567341434,160.0723862983894,30.718273509457596,0.0,0,0.0,,,,,,
71.99530803655833,2.584479710670009,92.0065567341434,160.0723862983894,29.678166811009824,0.0,0,0.0,,,,,,
72.99530803655833,2.6187754822846774,93.0065567341434,160.0723862983894,28.63806011256205,0.0,0,-0.0,,,,,,
73.99530803655833,2.6543398808715595,94.0065567341434,160.0723862983894,27.59795341411428,0.0,0,-0.0,,,,,,
74.99530803655833,2.691270366529737,95.0065567341434,160.0723862983894,26.557846715666507,0.0,0,-0.0,,,,,,
75.99530803655833,2.7296760787929273,96.0065567341434,160.0723862983894,25.517740017218735,0.0,0,-0.0,,,,,,
76.99530803655833,2.7696797804666637,97.0065567341434,160.0723862983894,24.477633318770962,0.0,0,-0.0,,,,,,
77.99530803655833,2.8114202234192125,98.0065567341434,160.0723862983894,23.43752662032319,0.0,0,-0.0,,,,,,
78.99530803655833,2.8550550512281347,99.0065567341434,160.0723862983894,22.397419921875418,0.0,0,-0.0,,,,,,
79.99530803655833,2.900764391823546,100.0065567341434,160.0723862983894,21.357313223427646,0.0,0,-0.0,,,,,,
80.99530803655833,2.948755346778136,101.0065567341434,160.0723862983894,20.317206524979873,0.0,0,-0.0,,,,,,
81.99530803655833,2.9992676598931665,102.0065567341434,160.0723862983894,19.2770998265321,0.0,0,-0.0,,,,,,
82.99530803655833,3.052580957442958,103.0065567341434,160.0723862983894,18.23699312808433,0.0,0,0.0,,,,,,
83.99530803655833,3.1090241136811017,104.0065567341434,160.0723862983894,17.196886429636557,0.0,0,0.0,,,,,,
84.99530803655833,3.1689875369028955,105.0065567341434,160.0723862983894,16.156779731188784,0.0,0,0.0,,,,,,
85.99530803655833,3.232939541662241,106.0065567341434,160.0723862983894,15.116673032741014,0.0,0,0.0,,,,,,
86.99530803655833,3.3014485541378638,107.0065567341434,160.0723862983894,14.076566334293243,0.0,0,0.0,,,,,,
87.99530803655833,3.375213835895891,108.0065567341434,160.0723862983894,13.036459635845473,0.0,0,0.0,,,,,,
88.99530803655833,3.455097334964447,109.0065567341434,160.0723862983894,12.0,0.0,0,0.0,,,,,,
89.9913849907493,3.5381037478136945,110.0,160.0,12.0,0.0,0,0.0,,,,,,
