Distance (in),Time (s),X (in),Y (in),Velocity (in/s),Orientation (deg),Touch,Rotational Velocity (deg/s),Way X (in),Way Y (in),Way Velocity (in/s),Way Orientation (deg),Way Turn Radius (in),Touch this Point
0.0,0.0,28.97,167.72,12.0,30.0,0,0.0,28.97,167.72,0.0,30.0,3.0,0
0.9999999999999971,0.08333333333333309,29.403294434867878,166.81874757547482,12.0,29.905192399350828,0,-1.1376912077900545,68.47,85.56000000000003,84.0,0.0,20.0,0
1.9999999999999942,0.16666666666666619,29.836588869735756,165.91749515094963,12.0,29.715577198052486,0,-2.275382415580109,147.47,77.66000000000003,12.0,0.0,3.0,0
2.999999999999991,0.24999999999999928,30.269883304603635,165.01624272642445,12.0,29.431154396104972,0,-3.4130736233701633,,,,,,
3.9999999999999885,0.33333333333333237,30.703177739471514,164.11499030189927,12.0,29.05192399350829,0,-4.550764831160218,,,,,,
4.999999999999986,0.41666666666666546,31.136472174339392,163.2137378773741,12.0,28.577885990262434,0,-5.688456038950272,,,,,,
5.999999999999983,0.49999999999999856,31.56976660920727,162.3124854528489,12.0,28.00904038636741,0,-6.826147246740324,,,,,,
6.999999999999979,0.5833333333333315,32.003061044075146,161.41123302832372,12.0,27.345387181823217,0,-7.963838454530375,,,,,,
7.999999999999974,0.6666666666666644,32.43635547894302,160.50998060379854,12.0,26.58692637662985,0,-9.101529662320429,,,,,,
8.99999999999997,0.7499999999999973,32.869649913810896,159.60872817927336,12.0,25.733657970787313,0,-10.23922087011048,,,,,,
9.999999999999964,0.8333333333333303,33.30294434867877,158.70747575474817,12.0,24.785581964295606,0,-11.376912077900533,,,,,,
10.999999999999961,0.9166666666666633,33.736238783546646,157.806223330223,12.0,23.742704924641306,0,-12.514603285690587,,,,,,
11.999999999999957,0.9999999999999963,34.16953321841452,156.9049709056978,12.0,22.64716480144387,0,-13.652287328949829,,,,,,
12.999999999999954,1.083332808547491,34.6028276532824,156.00371848117263,12.000151139273235,21.5453294585799,0,-14.747828027071511,,,,,,
13.99999999999995,1.1635787114354508,35.03612208815027,155.10246605664744,12.9232396884481,20.507405030631308,0,-14.85049039239742,,,,,,
14.999999999999947,1.2382904141242408,35.46941652301815,154.20121363212226,13.846328237622963,19.53238511346748,0,-14.85049039239742,,,,,,
15.999999999999943,1.3081820069621413,35.90271095788602,153.29996120759708,14.769416786797827,18.613080620141584,0,-14.85049039239742,,,,,,
16.99999999999994,1.3738377456886537,36.3360053927539,152.3987087830719,15.69250533597269,17.74346826159006,0,-14.85049039239742,,,,,,
17.999999999999936,1.4357417279165083,36.76929982762177,151.4974563585467,16.615593885147554,16.918451408605282,0,-14.85049039239742,,,,,,
18.999999999999932,1.4942995489428574,37.20259426248965,150.59620393402153,17.538682434322418,16.133679280156347,0,-14.85049039239742,,,,,,
19.99999999999993,1.549854404788368,37.63588869735752,149.69495150949635,18.46177098349728,15.385408180937596,0,-14.85049039239742,,,,,,
20.999999999999925,1.602699267665805,38.0691831322254,148.79369908497117,19.384859532672145,14.670393575017453,0,-14.85049039239742,,,,,,
21.999999999999922,1.6530862299442912,38.50247756709327,147.89244666044598,20.30794808184701,13.985805122540722,0,-14.85049039239742,,,,,,
22.99999999999992,1.7012337716770671,38.93577200196115,146.9911942359208,21.231036631021873,13.329159055879366,0,-14.85049039239742,,,,,,
23.999999999999915,1.7473324818467462,39.36906643682902,146.08994181139562,22.154125180196736,12.698263815361592,0,-14.85049039239742,,,,,,
24.99999999999991,1.7915496120094996,39.8023608716969,145.18868938687044,23.0772137293716,12.091175942410528,0,-14.85049039239742,,,,,,
25.999999999999908,1.8340327370678313,40.23565530656477,144.28743696234525,24.000302278546464,11.50616399211223,0,-14.85049039239742,,,,,,
26.999999999999904,1.874912725331509,40.66894974143265,143.38618453782007,24.923390827721327,10.941678776912116,0,-14.85049039239742,,,,,,
27.9999999999999,1.9143061685674165,41.10224417630052,142.4849321132949,25.84647937689619,10.396328653752686,0,-14.85049039239742,,,,,,
28.999999999999897,1.9523173857248712,41.5355386111684,141.5836796887697,26.769567926071055,9.868858862500124,0,-14.85049039239742,,,,,,
29.999999999999893,1.98904008704648,41.96883304603627,140.68242726424452,27.69265647524592,9.358134143985735,0,-14.85049039239742,,,,,,
30.99999999999989,2.0245587653739374,42.40212748090415,139.78117483971934,28.615745024420782,8.863124032194868,0,-14.85049039239742,,,,,,
31.999999999999886,2.0589498666116346,42.835421915772024,138.87992241519416,29.538833573595646,8.38289034165149,0,-14.85049039239742,,,,,,
32.99999999999988,2.092282780118941,43.2687163506399,137.97866999066898,30.461922122770506,7.925644132316355,0,-14.561716529685341,,,,,,
33.99999999999987,2.1246206812827455,43.702010785507774,137.0774175661438,31.385010671945366,7.494360017396365,0,-14.133026691289905,,,,,,
34.999999999999865,2.156021251978034,44.13530522037565,136.1761651416186,32.30809922112023,7.0872570076220835,0,-13.71641262299011,,,,,,
35.99999999999986,2.1865372995551455,44.568599655243524,135.27491271709343,33.231187770295094,6.702715707999149,0,-13.311212638753325,,,,,,
36.99999999999985,2.216217291034254,45.0018940901114,134.37366029256825,34.15427631946996,6.339260039301755,0,-12.916817987429523,,,,,,
37.999999999999844,2.2451058160739192,45.435188524979274,133.47240786804306,35.07736486864482,5.995541424135673,0,-12.532667353023221,,,,,,
38.99999999999984,2.273243989813853,45.86848295984715,132.57115544351788,36.000453417819685,5.670325053827818,0,-12.158242051133538,,,,,,
39.99999999999983,2.3006698047249277,46.301777394715025,131.6699030189927,36.92354196699455,5.362477919819448,0,-11.793061818426313,,,,,,
40.99999999999982,2.327418439020914,46.7350718295829,130.76865059446752,37.84663051616941,5.07095834752574,0,-11.436681109398782,,,,,,
41.999999999999815,2.353522527912178,47.168366264450775,129.86739816994233,38.769719065344276,4.794806814575031,0,-11.088685828818953,,,,,,
42.99999999999981,2.379012402947177,47.60166069931865,128.96614574541715,39.69280761451914,4.533137871109665,0,-10.748690439746706,,,,,,
43.9999999999998,2.4039163038434403,48.034955134186525,128.06489332089197,40.615896163694,4.28513300908502,0,-10.416335396496313,,,,,,
44.999999999999794,2.4282605665173156,48.4682495690544,127.16364089636679,41.53898471286887,4.050034351543425,0,-10.091284859690981,,,,,,
45.99999999999979,2.4520697904511057,48.901544003922275,126.2623884718416,42.46207326204373,3.8271390526836973,0,-9.773224657010497,,,,,,
46.99999999999978,2.475366988063739,49.33483843879015,125.36113604731642,43.385161811218595,3.6157943159981327,0,-9.46186045859697,,,,,,
47.99999999999977,2.4981737183582116,49.768132873658026,124.45988362279124,44.30825036039346,3.415392951443001,0,-9.156916140563103,,,,,,
48.999999999999766,2.5205102067909424,50.2014273085259,123.55863119826606,45.23133890956832,3.2253694040529335,0,-8.858132313802646,,,,,,
49.99999999999976,2.542395453033113,50.634721743393776,122.65737877374087,46.154427458743186,3.045196196009628,0,-8.565264998463189,,,,,,
50.99999999999975,2.5638473280625678,51.06801617826165,121.75612634921569,47.07751600791805,2.8743807322574435,0,-8.278084427110905,,,,,,
51.999999999999744,2.5848826618293144,51.501310613129526,120.85487392469051,48.00060455709291,2.712462426586212,0,-7.996373961879616,,,,,,
52.99999999999974,2.6055173225719326,51.9346050479974,119.95362150016533,48.92369310626778,2.5590101108888486,0,-7.719929112820872,,,,,,
53.99999999999973,2.625766288721231,52.367899482865276,119.05236907564014,49.84678165544264,2.413619695222362,0,-7.448556646313667,,,,,,
54.99999999999972,2.6456437142072393,52.80119391773315,118.15111665111496,50.769870204617504,2.275912050498196,0,-7.182073773797583,,,,,,
55.999999999999716,2.665162987882689,53.234488352601026,117.24986422658978,51.69295875379237,2.1455310892183714,0,-6.920307412299483,,,,,,
56.99999999999971,2.684336787687777,53.6677827874689,116.3486118020646,52.61604730296723,2.0221420227543,0,-6.663093509262216,,,,,,
57.9999999999997,2.70317713010495,54.10107722233678,115.44735937753941,53.539135852142095,1.9054297763149466,0,-6.410276425080294,,,,,,
58.999999999999694,2.7216954153867867,54.53437165720465,114.54610695301423,54.46222440131696,1.7950975450366535,0,-6.161708367523277,,,,,,
59.99999999999969,2.7399024689832143,54.96766609207253,113.64485452848905,55.38531295049182,1.6908654766032791,0,-5.917248872901084,,,,,,
60.99999999999968,2.7578085795449905,55.4009605269404,112.74360210396387,56.30840149966669,1.5924694675185986,0,-5.676764329410963,,,,,,
61.99999999999967,2.7754235338374693,55.83425496180828,111.84234967943868,57.23149004884155,1.49966006164165,0,-5.4401275386166805,,,,,,
62.999999999999666,2.7927566488612685,56.26754939667615,110.9410972549135,58.154578598016414,1.4122014408922285,0,-5.207217311456956,,,,,,
63.99999999999966,2.809816801443748,56.70084383154403,110.03984483038832,59.07766714719128,1.3298704991655246,0,-4.977918095571022,,,,,,
64.99999999999966,2.826612455536577,57.1341382664119,109.13859240586314,60.00075569636615,1.2524559914848508,0,-4.752119631072658,,,,,,
65.99999999999966,2.8431516874295153,57.56743270127978,108.23733998133795,60.92384424554102,1.1797577512892563,0,-4.529716632205851,,,,,,
66.99999999999966,2.8594422090684244,58.00072713614765,107.33608755681277,61.84693279471589,1.1115859695150947,0,-4.310608492581512,,,,,,
67.99999999999966,2.8754913896460166,58.43402157101553,106.43483513228759,62.77002134389076,1.0477605298014097,0,-4.094699011929794,,,,,,
68.99999999999966,2.8913062756166363,58.8673160058834,105.5335827077624,63.69310989306563,0.9881103947406137,0,-3.881896142510472,,,,,,
69.99999999999966,2.9068936092711324,59.30061044075128,104.63233028323722,64.6161984422405,0.9324730386184045,0,-3.672111753508446,,,,,,
70.99999999999966,2.922259845994359,59.73390487561915,103.73107785871204,65.53928699141537,0.8806939225493671,0,-3.465261411905052,,,,,,
71.99999999999966,2.937411170315862,60.16719931048703,102.82982543418686,66.46237554059023,0.8326260083246443,0,-3.2612641784617047,,,,,,
72.99999999999966,2.95235351085362,60.6004937453549,101.92857300966168,67.3854640897651,0.7881293076521123,0,-3.06004241758221,,,,,,
73.99999999999966,2.9670925542412045,61.03378818022278,101.0273205851365,68.30855263893996,0.7470704637933044,0,-2.8615216199359974,,,,,,
74.99999999999966,2.981633758120231,61.46708261509065,100.12606816061131,69.23164118811482,0.7093223628898241,0,-2.665630236828145,,,,,,
75.99999999999966,2.995982363272383,61.90037704995853,99.22481573608613,70.15472973728968,0.6747637725293769,0,-2.472299525394904,,,,,,
76.99999999999966,3.0101434049584936,62.333671484826404,98.32356331156095,71.07781828646455,0.643279005331589,0,-2.2814634037866117,,,,,,
77.99999999999966,3.024121723526074,62.76696591969428,97.42231088703576,72.00090683563941,0.6147576148223974,0,-2.0930583155746056,,,,,,
78.99999999999966,3.0379219743412005,63.200260354562154,96.52105846251058,72.92399538481428,0.5890967217525438,0,-1.9070231632343067,,,,,,
79.99999967247292,3.051548632660733,63.633647907148315,95.61985117547279,73.84708363165296,0.5661922628023262,0,-1.7233179645196781,,,,,,
80.99989550906142,3.0650046270946616,64.09214921648432,94.73127465464626,74.77007602877542,0.5459478298076389,0,-1.5418665868632235,,,,,,
81.99979134564991,3.078295534183071,64.59448783491942,93.86672413764005,75.69306842589788,0.5282711867511966,0,-1.3626143976973104,,,,,,
82.99968718223839,3.0914253556392013,65.13940817752044,93.02836055049747,76.61606082302033,0.5130740471245427,0,-1.1855087271051676,,,,,,
83.9995830188269,3.104397949416512,65.72554822721989,92.21827936557503,77.5390532201428,0.5002718654854877,0,-1.0104987749235015,,,,,,
84.99947885541538,3.1172170365132077,66.35144293914936,91.43850536395296,78.46204561726526,0.48978364215839454,0,-0.8375355232771646,,,,,,
85.99937469200387,3.1298862073788767,67.0155279024887,90.69098757453682,79.38503801438772,0.48153174011358885,0,-0.6665716541691484,,,,,,
86.99927052859236,3.1424089279508403,67.71614325067831,89.97759440250043,80.30803041151017,0.47544171314263534,0,-0.49756147177928156,,,,,,
87.99916636518086,3.1547885453455993,68.45153781022115,89.3001089592459,81.23102280863263,0.4714421445191601,0,-0.33046082915239516,,,,,,
88.99906220176935,3.1670282932287614,69.21987347770445,88.66022460555378,82.15401520575509,0.0,0,-0.16522705898174372,,,,,,
89.99895803835786,3.1791312968850005,70.01922981410098,88.05954071906294,83.07700760287756,0.0,0,0.0,,,,,,
90.99885387494633,3.1912338089616807,70.84760884486646,87.49955869665952,82.16072655565779,0.0,0,0.0,,,,,,
91.99874971153483,3.203472048718208,71.70294005383545,86.9816782017665,81.244445508438,0.0,0,0.0,,,,,,
92.99864554812332,3.2158490950105993,72.58308555843341,86.50719366591417,80.32816446121822,0.0,0,0.0,,,,,,
93.99854138471181,3.228368132658185,73.48584545326977,86.07729105333541,79.41188341399844,0.0,0,0.0,,,,,,
94.9984372213003,3.2410324573625457,74.4089633087557,85.69304489667272,78.49560236677866,0.0,0,0.0,,,,,,
95.9983330578888,3.2538454809152335,75.35013181100297,85.35541561120618,77.57932131955887,0.0,0,0.0,,,,,,
96.99822889447731,3.266810736714857,76.30699852890704,85.06524709431557,76.66304027233907,0.0,0,0.0,,,,,,
97.9981247310658,3.2799318856158526,77.27717179399971,84.82326461617626,75.74675922511929,0.0,0,0.0,,,,,,
98.99802056765428,3.2932127221331577,78.2582266783747,84.63007300696154,74.83047817789952,0.0,0,0.0,,,,,,
99.99802056765428,3.3066585902242207,79.25326386858468,84.53056928794054,73.91410167777725,0.0,0,0.0,,,,,,
100.99802056765428,3.320272198078734,80.24830105879467,84.43106556891954,72.99772517765498,0.0,0,0.0,,,,,,
101.99802056765428,3.334057783738016,81.24333824900465,84.33156184989853,72.08134867753272,0.0,0,0.0,,,,,,
102.99802056765428,3.3480197479131744,82.23837543921464,84.23205813087753,71.16497217741045,0.0,0,0.0,,,,,,
103.99802056765428,3.362162662418061,83.23341262942462,84.13255441185653,70.24859567728818,0.0,0,0.0,,,,,,
104.99802056765428,3.376491279155866,84.2284498196346,84.03305069283553,69.33221917716591,0.0,0,0.0,,,,,,
105.99802056765428,3.3910105397035517,85.22348700984459,83.93354697381453,68.41584267704364,0.0,0,0.0,,,,,,
106.99802056765428,3.4057255855424935,86.21852420005457,83.83404325479353,67.49946617692137,0.0,0,0.0,,,,,,
107.99802056765428,3.420641768988325,87.21356139026456,83.73453953577253,66.5830896767991,0.0,0,0.0,,,,,,
108.99802056765428,3.435764664878127,88.20859858047454,83.63503581675153,65.66671317667684,0.0,0,0.0,,,,,,
109.99802056765428,3.4511000830788205,89.20363577068453,83.53553209773052,64.75033667655457,0.0,0,0.0,,,,,,
110.99802056765428,3.466654081886985,90.19867296089451,83.43602837870952,63.833960176432306,0.0,0,0.0,,,,,,
111.99802056765428,3.4824329823974476,91.1937101511045,83.33652465968852,62.917583676310045,0.0,0,0.0,,,,,,
112.99802056765428,3.498443383925922,92.18874734131448,83.23702094066752,62.00120717618778,0.0,0,0.0,,,,,,
113.99802056765428,3.5146921805798588,93.18378453152447,83.13751722164652,61.08483067606552,0.0,0,0.0,,,,,,
114.99802056765428,3.531186579081648,94.17882172173445,83.03801350262552,60.16845417594326,0.0,0,0.0,,,,,,
115.99802056765428,3.54793411795949,95.17385891194444,82.93850978360452,59.252077675821,0.0,0,0.0,,,,,,
116.99802056765428,3.564942688233833,96.16889610215442,82.83900606458351,58.33570117569874,0.0,0,0.0,,,,,,
117.99802056765428,3.5822205557414577,97.1639332923644,82.73950234556251,57.419324675576476,0.0,0,0.0,,,,,,
118.99802056765428,3.5997763852552813,98.15897048257439,82.63999862654151,56.502948175454215,0.0,0,0.0,,,,,,
119.99802056765428,3.617619266576054,99.15400767278437,82.54049490752051,55.58657167533195,0.0,0,0.0,,,,,,
120.99802056765428,3.6357587427926124,100.14904486299436,82.44099118849951,54.67019517520969,0.0,0,0.0,,,,,,
121.99802056765428,3.6542048409306265,101.14408205320434,82.34148746947851,53.75381867508743,0.0,0,0.0,,,,,,
122.99802056765428,3.6729681052362575,102.13911924341433,82.2419837504575,52.83744217496517,0.0,0,0.0,,,,,,
123.99802056765428,3.692059633371303,103.13415643362431,82.1424800314365,51.92106567484291,0.0,0,0.0,,,,,,
124.99802056765428,3.711491115830899,104.1291936238343,82.0429763124155,51.004689174720646,0.0,0,0.0,,,,,,
125.99802056765428,3.7312748789343138,105.12423081404428,81.9434725933945,50.088312674598384,0.0,0,0.0,,,,,,
126.99802056765428,3.7514239317846747,106.11926800425427,81.8439688743735,49.17193617447612,0.0,0,0.0,,,,,,
127.99802056765428,3.771952017645603,107.11430519446425,81.7444651553525,48.25555967435386,0.0,0,0.0,,,,,,
128.99802056765427,3.7928736702428365,108.10934238467424,81.6449614363315,47.339183174231614,0.0,0,0.0,,,,,,
129.99802056765427,3.8142042755684593,109.10437957488422,81.5454577173105,46.42280667410935,0.0,0,0.0,,,,,,
130.99802056765427,3.8359601398459446,110.0994167650942,81.4459539982895,45.50643017398709,0.0,0,0.0,,,,,,
131.99802056765427,3.858158564407967,111.09445395530419,81.3464502792685,44.59005367386483,0.0,0,0.0,,,,,,
132.99802056765427,3.8808179283482147,112.08949114551417,81.2469465602475,43.67367717374257,0.0,0,0.0,,,,,,
133.99802056765427,3.9039577799362877,113.08452833572416,81.14744284122649,42.75730067362031,0.0,0,0.0,,,,,,
134.99802056765427,3.9275989379347482,114.07956552593414,81.04793912220549,41.840924173498045,0.0,0,0.0,,,,,,
135.99802056765427,3.9517636041339603,115.07460271614413,80.94843540318449,40.924547673375784,0.0,0,-0.0,,,,,,
136.99802056765427,3.976475488628908,116.06963990635411,80.84893168416349,40.00817117325352,0.0,0,-0.0,,,,,,
137.99802056765427,4.001759949609386,117.0646770965641,80.74942796514249,39.09179467313126,0.0,0,-0.0,,,,,,
138.99802056765427,4.027644149729073,118.05971428677408,80.64992424612149,38.175418173009,0.0,0,-0.0,,,,,,
139.99802056765427,4.054157231470306,119.05475147698407,80.55042052710048,37.25904167288674,0.0,0,-0.0,,,,,,
140.99802056765427,4.081330514342593,120.04978866719405,80.45091680807948,36.34266517276448,0.0,0,-0.0,,,,,,
141.99802056765427,4.109197717260279,121.04482585740404,80.35141308905848,35.426288672642215,0.0,0,-0.0,,,,,,
142.99802056765427,4.137795210058436,122.03986304761402,80.25190937003748,34.509912172519954,0.0,0,-0.0,,,,,,
143.99802056765427,4.16716229885186,123.034900237824,80.15240565101648,33.59353567239769,0.0,0,-0.0,,,,,,
144.99802056765427,4.197341550852879,124.02993742803399,80.05290193199548,32.67715917227543,0.0,0,-0.0,,,,,,
145.99802056765427,4.228379165381731,125.02497461824397,79.95339821297448,31.760782672153166,0.0,0,-0.0,,,,,,
146.99802056765427,4.260325399183177,126.02001180845396,79.85389449395348,30.8444061720309,0.0,0,-0.0,,,,,,
147.99802056765427,4.293235055875825,127.01504899866394,79.75439077493247,29.928029671908636,0.0,0,-0.0,,,,,,
148.99802056765427,4.327168051499569,128.01008618887394,79.65488705591147,29.01165317178637,0.0,0,-0.0,,,,,,
149.99802056765427,4.36219007081461,129.00512337908393,79.55538333689047,28.095276671664106,0.0,0,-0.0,,,,,,
150.99802056765427,4.3983733324066066,130.0001605692939,79.45587961786947,27.17890017154184,0.0,0,-0.0,,,,,,
151.99802056765427,4.435797484986767,130.9951977595039,79.35637589884847,26.262523671419576,0.0,0,-0.0,,,,,,
152.99802056765427,4.474550662841225,131.99023494971388,79.25687217982747,25.34614717129731,0.0,0,-0.0,,,,,,
153.99802056765427,4.514730735589044,132.98527213992386,79.15736846080647,24.429770671175046,0.0,0,-0.0,,,,,,
154.99802056765427,4.556446796816576,133.98030933013385,79.05786474178547,23.51339417105278,0.0,0,-0.0,,,,,,
155.99802056765427,4.5998209485559665,134.97534652034383,78.95836102276446,22.597017670930516,0.0,0,0.0,,,,,,
156.99802056765427,4.644990455081787,135.97038371055382,78.85885730374346,21.68064117080825,0.0,0,0.0,,,,,,
157.99802056765427,4.6921103617077735,136.9654209007638,78.75935358472246,20.764264670685986,0.0,0,0.0,,,,,,
158.99802056765427,4.74135670449137,137.9604580909738,78.65984986570146,19.84788817056372,0.0,0,0.0,,,,,,
