Distance (in),Time (s),X (in),Y (in),Velocity (in/s),Orientation (deg),Touch,Rotational Velocity (deg/s),Way X (in),Way Y (in),Way Velocity (in/s),Way Orientation (deg),Way Turn Radius (in),Touch this Point
0.0,0.0,115.0,156.60000000000002,12.0,0.0,0,0.0,115.0,156.60000000000002,12.0,0.0,3.0,0
1.0000000000000075,0.07947772443204922,114.262620366671,157.27547855358378,13.164283631572111,0.0,0,0.0,77.0,191.41000000000003,72.0,0.0,3.0,0
2.000000000000015,0.15222390880045103,113.525240733342,157.95095710716754,14.328567263144222,0.0,0,0.0,55.0,211.60000000000002,12.0,0.0,3.0,0
3.0000000000000226,0.21928980048316565,112.787861100013,158.6264356607513,15.492850894716334,0.0,0,0.0,,,,,,
4.00000000000003,0.281498226826443,112.050481466684,159.30191421433506,16.657134526288445,0.0,0,0.0,,,,,,
5.000000000000037,0.3395053020746881,111.313101833355,159.97739276791881,17.821418157860556,0.0,0,0.0,,,,,,
6.000000000000044,0.39384261515063534,110.57572220002601,160.65287132150257,18.985701789432667,0.0,0,0.0,,,,,,
7.0000000000000515,0.44494686660393845,109.83834256669701,161.32834987508633,20.14998542100478,0.0,0,0.0,,,,,,
8.000000000000059,0.4931811837378516,109.10096293336801,162.0038284286701,21.31426905257689,0.0,0,0.0,,,,,,
9.000000000000066,0.5388507688589848,108.36358330003901,162.67930698225385,22.478552684149,0.0,0,0.0,,,,,,
10.000000000000073,0.5822145972988795,107.62620366671001,163.3547855358376,23.642836315721112,0.0,0,-0.0,,,,,,
11.00000000000008,0.6234943043257106,106.88882403338101,164.03026408942137,24.807119947293224,0.0,0,-0.0,,,,,,
12.000000000000087,0.6628810344059918,106.15144440005201,164.70574264300512,25.971403578865335,0.0,0,-0.0,,,,,,
13.000000000000094,0.7005407888808663,105.41406476672302,165.38122119658888,27.135687210437446,0.0,0,-0.0,,,,,,
14.000000000000101,0.7366186505003287,104.67668513339402,166.05669975017264,28.299970842009557,0.0,0,-0.0,,,,,,
15.000000000000108,0.7712421564691726,103.93930550006502,166.7321783037564,29.46425447358167,0.0,0,-0.0,,,,,,
16.000000000000117,0.8045240179732716,103.20192586673602,167.40765685734016,30.62853810515378,0.0,0,-0.0,,,,,,
17.000000000000124,0.8365643324596307,102.46454623340702,168.08313541092392,31.79282173672589,0.0,0,-0.0,,,,,,
18.00000000000013,0.8674523981211724,101.72716660007802,168.75861396450767,32.957105368298,0.0,0,-0.0,,,,,,
19.00000000000014,0.8972682134408004,100.98978696674902,169.43409251809143,34.12138899987011,0.0,0,-0.0,,,,,,
20.000000000000146,0.926083725191232,100.25240733342002,170.1095710716752,35.285672631442225,0.0,0,-0.0,,,,,,
21.000000000000153,0.9539638738819556,99.51502770009103,170.78504962525895,36.449956263014336,0.0,0,-0.0,,,,,,
22.00000000000016,0.9809674748627079,98.77764806676203,171.4605281788427,37.61423989458645,0.0,0,-0.0,,,,,,
23.000000000000167,1.007147965140101,98.04026843343303,172.13600673242647,38.77852352615856,0.0,0,0.0,,,,,,
24.000000000000174,1.032554039740531,97.30288880010403,172.81148528601022,39.94280715773067,0.0,0,0.0,,,,,,
25.00000000000018,1.0572301966594086,96.56550916677503,173.48696383959398,41.10709078930278,0.0,0,0.0,,,,,,
26.00000000000019,1.0812172057145464,95.82812953344603,174.16244239317774,42.27137442087489,0.0,0,0.0,,,,,,
27.000000000000195,1.1045525137083514,95.09074990011703,174.8379209467615,43.435658052447,0.0,0,0.0,,,,,,
28.000000000000203,1.1272705960067284,94.35337026678803,175.51339950034526,44.599941684019115,0.0,0,0.0,,,,,,
29.00000000000021,1.1494032628193227,93.61599063345903,176.18887805392902,45.764225315591226,0.0,0,0.0,,,,,,
30.000000000000217,1.1709799270088874,92.87861100013004,176.86435660751278,46.92850894716334,0.0,0,0.0,,,,,,
31.000000000000224,1.1920278390863166,92.14123136680104,177.53983516109653,48.09279257873545,0.0,0,0.0,,,,,,
32.000000000000234,1.212572294100776,91.40385173347204,178.2153137146803,49.25707621030757,0.0,0,0.0,,,,,,
33.00000000000024,1.232636814364245,90.66647210014304,178.89079226826405,50.42135984187968,0.0,0,0.0,,,,,,
34.00000000000025,1.2522433113203164,89.92909246681404,179.5662708218478,51.58564347345179,0.0,0,0.0,,,,,,
35.000000000000256,1.271412229350009,89.19171283348504,180.24174937543157,52.7499271050239,0.0,0,0.0,,,,,,
36.00000000000026,1.2901626738805756,88.45433320015604,180.91722792901533,53.91421073659601,0.0,0,0.0,,,,,,
37.00000000000027,1.308512525809451,87.71695356682704,181.59270648259908,55.07849436816812,0.0,0,0.0,,,,,,
38.00000000000028,1.326478543960862,86.97957393349805,182.26818503618284,56.242777999740234,0.0,0,0.0,,,,,,
39.000000000000284,1.3440764570462893,86.24219430016905,182.9436635897666,57.407061631312345,0.0,0,0.0,,,,,,
40.00000000000029,1.3613210463932057,85.50481466684005,183.61914214335036,58.571345262884456,0.0,0,0.0,,,,,,
41.0000000000003,1.378226220532307,84.76743503351105,184.29462069693412,59.73562889445657,0.0,0,0.0,,,,,,
42.000000000000306,1.3948050825861429,84.03005540018205,184.97009925051788,60.89991252602868,0.0,0,0.0,,,,,,
43.00000000000031,1.4110699912770663,83.29267576685305,185.64557780410163,62.06419615760079,0.0,0,0.0,,,,,,
44.00000000000032,1.4270326162660134,82.55529613352405,186.3210563576854,63.2284797891729,0.0,0,0.0,,,,,,
45.00000000000033,1.4427039884427466,81.81791650019505,186.99653491126915,64.39276342074501,0.0,0,0.0,,,,,,
46.000000000000334,1.4580945457103511,81.08053686686605,187.6720134648529,65.55704705231712,0.0,0,0.0,,,,,,
47.00000000000034,1.4732141747398853,80.34315723353706,188.34749201843667,66.72133068388922,0.0,0,0.0,,,,,,
48.00000000000035,1.48807224911346,79.60577760020806,189.02297057202043,67.88561431546132,0.0,0,0.0,,,,,,
49.000000000000355,1.5026776642242323,78.86839796687906,189.69844912560418,69.04989794703343,0.0,0,0.0,,,,,,
50.00000000000036,1.5170388692586705,78.13101833355006,190.37392767918794,70.21418157860553,0.0,0,0.0,,,,,,
51.00000000000037,1.531163896548989,77.39363870022106,191.0494062327717,71.37846521017764,0.0,0,0.0,,,,,,
51.53383451675218,1.538698856793017,77.0,191.41000000000003,70.31691192864952,0.0,0,0.0,,,,,,
52.53383451675219,1.553124158528309,76.26323521632021,192.08614913556798,68.32836819793069,0.0,0,0.0,,,,,,
53.533834516752194,1.567975475386575,75.52647043264042,192.76229827113593,66.33982446721186,0.0,0,0.0,,,,,,
54.5338345167522,1.5832787356725957,74.78970564896063,193.4384474067039,64.35128073649302,0.0,0,0.0,,,,,,
55.53383451675221,1.5990623090738272,74.05294086528085,194.11459654227184,62.362737005774186,0.0,0,0.0,,,,,,
56.533834516752215,1.6153573230962888,73.31617608160106,194.7907456778398,60.37419327505535,0.0,0,0.0,,,,,,
57.53383451675222,1.6321980324852494,72.57941129792127,195.46689481340775,58.38564954433651,0.0,0,0.0,,,,,,
58.53383451675223,1.6496222526458733,71.84264651424148,196.1430439489757,56.39710581361767,0.0,0,0.0,,,,,,
59.533834516752236,1.6676718708465221,71.10588173056169,196.81919308454366,54.40856208289883,0.0,0,0.0,,,,,,
60.53383451675224,1.6863934525791882,70.3691169468819,197.4953422201116,52.420018352179994,0.0,0,0.0,,,,,,
61.53383451675225,1.7058389651544172,69.63235216320211,198.17149135567956,50.431474621461156,0.0,0,0.0,,,,,,
62.53383451675226,1.7260666468243027,68.89558737952233,198.84764049124752,48.44293089074232,0.0,0,0.0,,,,,,
63.533834516752265,1.747142058027495,68.15882259584254,199.52378962681547,46.45438716002348,0.0,0,0.0,,,,,,
64.53383451675228,1.7691393625551717,67.42205781216275,200.19993876238343,44.46584342930463,0.0,0,0.0,,,,,,
65.5338345167523,1.7921429017423631,66.68529302848296,200.87608789795138,42.477299698585774,0.0,0,0.0,,,,,,
66.53383451675231,1.8162491459639831,65.94852824480317,201.55223703351933,40.48875596786692,0.0,0,0.0,,,,,,
67.53383451675232,1.841569137419107,65.21176346112338,202.2283861690873,38.50021223714807,0.0,0,-0.0,,,,,,
68.53383451675234,1.8682315804904503,64.4749986774436,202.90453530465524,36.51166850642922,0.0,0,-0.0,,,,,,
69.53383451675234,1.896386797217221,63.73823389376381,203.5806844402232,34.52312477571039,0.0,0,-0.0,,,,,,
70.53383451675234,1.9262118557324583,63.00146911008403,204.25683357579115,32.53458104499157,0.0,0,-0.0,,,,,,
71.53383451675234,1.9579173153810838,62.26470432640425,204.9329827113591,30.54603731427275,0.0,0,-0.0,,,,,,
72.53383451675234,1.991756241239125,61.52793954272447,205.60913184692706,28.557493583553928,0.0,0,-0.0,,,,,,
73.53383451675234,2.0280364703873706,60.79117475904469,206.285280982495,26.568949852835107,0.0,0,-0.0,,,,,,
74.53383451675234,2.067137646968742,60.054409975364905,206.96143011806296,24.580406122116287,0.0,0,-0.0,,,,,,
75.53383451675234,2.1095354383623666,59.31764519168512,207.63757925363092,22.591862391397466,0.0,0,0.0,,,,,,
76.53383451675234,2.155836899573718,58.58088040800534,208.31372838919887,20.603318660678646,0.0,0,0.0,,,,,,
77.53383451675234,2.206833769051265,57.84411562432556,208.98987752476683,18.614774929959825,0.0,0,0.0,,,,,,
78.53383451675234,2.263585837725683,57.10735084064578,209.66602666033478,16.626231199241005,0.0,0,0.0,,,,,,
79.53383451675234,2.327557344984696,56.370586056966,210.34217579590273,14.637687468522182,0.0,0,0.0,,,,,,
80.53383451675234,2.4008527740096817,55.633821273286216,211.0183249314707,12.64914373780336,0.0,0,0.0,,,,,,
81.39411080482424,2.470654491848061,55.0,211.60000000000002,12.0,0.0,0,0.0,,,,,,
