Distance (in),Time (s),X (in),Y (in),Velocity (in/s),Orientation (deg),Touch,Rotational Velocity (deg/s),Way X (in),Way Y (in),Way Velocity (in/s),Way Orientation (deg),Way Turn Radius (in),Touch this Point
0.0,0.0,115.0,159.0,12.0,0.0,0,0.0,115.0,159.0,12.0,0.0,3.0,0
1.0000000000000075,0.07947772443204922,114.262620366671,158.32452144641624,13.164283631572111,0.0,0,0.0,77.0,124.19,72.0,0.0,3.0,0
2.000000000000015,0.15222390880045103,113.525240733342,157.64904289283248,14.328567263144222,0.0,0,0.0,55.0,104.0,12.0,0.0,3.0,0.0
3.0000000000000226,0.21928980048316565,112.787861100013,156.97356433924872,15.492850894716334,0.0,0,0.0,,,,,,
4.00000000000003,0.281498226826443,112.050481466684,156.29808578566497,16.657134526288445,0.0,0,0.0,,,,,,
5.000000000000037,0.3395053020746881,111.313101833355,155.6226072320812,17.821418157860556,0.0,0,0.0,,,,,,
6.000000000000044,0.39384261515063534,110.57572220002601,154.94712867849745,18.985701789432667,0.0,0,0.0,,,,,,
7.0000000000000515,0.44494686660393845,109.83834256669701,154.2716501249137,20.14998542100478,0.0,0,0.0,,,,,,
8.000000000000059,0.4931811837378516,109.10096293336801,153.59617157132993,21.31426905257689,0.0,0,0.0,,,,,,
9.000000000000066,0.5388507688589848,108.36358330003901,152.92069301774617,22.478552684149,0.0,0,0.0,,,,,,
10.000000000000073,0.5822145972988795,107.62620366671001,152.24521446416242,23.642836315721112,0.0,0,-0.0,,,,,,
11.00000000000008,0.6234943043257106,106.88882403338101,151.56973591057866,24.807119947293224,0.0,0,-0.0,,,,,,
12.000000000000087,0.6628810344059918,106.15144440005201,150.8942573569949,25.971403578865335,0.0,0,-0.0,,,,,,
13.000000000000094,0.7005407888808663,105.41406476672302,150.21877880341114,27.135687210437446,0.0,0,-0.0,,,,,,
14.000000000000101,0.7366186505003287,104.67668513339402,149.54330024982738,28.299970842009557,0.0,0,-0.0,,,,,,
15.000000000000108,0.7712421564691726,103.93930550006502,148.86782169624362,29.46425447358167,0.0,0,-0.0,,,,,,
16.000000000000117,0.8045240179732716,103.20192586673602,148.19234314265987,30.62853810515378,0.0,0,-0.0,,,,,,
17.000000000000124,0.8365643324596307,102.46454623340702,147.5168645890761,31.79282173672589,0.0,0,-0.0,,,,,,
18.00000000000013,0.8674523981211724,101.72716660007802,146.84138603549235,32.957105368298,0.0,0,-0.0,,,,,,
19.00000000000014,0.8972682134408004,100.98978696674902,146.1659074819086,34.12138899987011,0.0,0,-0.0,,,,,,
20.000000000000146,0.926083725191232,100.25240733342002,145.49042892832483,35.285672631442225,0.0,0,-0.0,,,,,,
21.000000000000153,0.9539638738819556,99.51502770009103,144.81495037474107,36.449956263014336,0.0,0,-0.0,,,,,,
22.00000000000016,0.9809674748627079,98.77764806676203,144.13947182115731,37.61423989458645,0.0,0,-0.0,,,,,,
23.000000000000167,1.007147965140101,98.04026843343303,143.46399326757356,38.77852352615856,0.0,0,0.0,,,,,,
24.000000000000174,1.032554039740531,97.30288880010403,142.7885147139898,39.94280715773067,0.0,0,0.0,,,,,,
25.00000000000018,1.0572301966594086,96.56550916677503,142.11303616040604,41.10709078930278,0.0,0,0.0,,,,,,
26.00000000000019,1.0812172057145464,95.82812953344603,141.43755760682228,42.27137442087489,0.0,0,0.0,,,,,,
27.000000000000195,1.1045525137083514,95.09074990011703,140.76207905323852,43.435658052447,0.0,0,0.0,,,,,,
28.000000000000203,1.1272705960067284,94.35337026678803,140.08660049965476,44.599941684019115,0.0,0,0.0,,,,,,
29.00000000000021,1.1494032628193227,93.61599063345903,139.411121946071,45.764225315591226,0.0,0,0.0,,,,,,
30.000000000000217,1.1709799270088874,92.87861100013004,138.73564339248725,46.92850894716334,0.0,0,0.0,,,,,,
31.000000000000224,1.1920278390863166,92.14123136680104,138.0601648389035,48.09279257873545,0.0,0,0.0,,,,,,
32.000000000000234,1.212572294100776,91.40385173347204,137.38468628531973,49.25707621030756,0.0,0,0.0,,,,,,
33.00000000000024,1.232636814364245,90.66647210014304,136.70920773173597,50.42135984187967,0.0,0,0.0,,,,,,
34.00000000000025,1.2522433113203164,89.92909246681404,136.0337291781522,51.58564347345178,0.0,0,0.0,,,,,,
35.000000000000256,1.271412229350009,89.19171283348504,135.35825062456846,52.74992710502389,0.0,0,0.0,,,,,,
36.00000000000026,1.2901626738805756,88.45433320015604,134.6827720709847,53.914210736596004,0.0,0,0.0,,,,,,
37.00000000000027,1.308512525809451,87.71695356682704,134.00729351740094,55.078494368168116,0.0,0,0.0,,,,,,
38.00000000000028,1.326478543960862,86.97957393349805,133.33181496381718,56.24277799974023,0.0,0,0.0,,,,,,
39.000000000000284,1.3440764570462893,86.24219430016905,132.65633641023342,57.40706163131234,0.0,0,0.0,,,,,,
40.00000000000029,1.3613210463932057,85.50481466684005,131.98085785664966,58.57134526288445,0.0,0,0.0,,,,,,
41.0000000000003,1.378226220532307,84.76743503351105,131.3053793030659,59.73562889445656,0.0,0,0.0,,,,,,
42.000000000000306,1.3948050825861429,84.03005540018205,130.62990074948215,60.89991252602867,0.0,0,0.0,,,,,,
43.00000000000031,1.4110699912770663,83.29267576685305,129.9544221958984,62.06419615760078,0.0,0,0.0,,,,,,
44.00000000000032,1.4270326162660134,82.55529613352405,129.27894364231463,63.228479789172894,0.0,0,0.0,,,,,,
45.00000000000033,1.4427039884427466,81.81791650019505,128.60346508873087,64.392763420745,0.0,0,0.0,,,,,,
46.00000000000033,1.458094545710351,81.08053686686605,127.92798653514713,65.5570470523171,0.0,0,0.0,,,,,,
47.00000000000033,1.4732141747398848,80.34315723353706,127.25250798156338,66.7213306838892,0.0,0,0.0,,,,,,
48.00000000000033,1.4880722491134593,79.60577760020806,126.57702942797964,67.88561431546131,0.0,0,0.0,,,,,,
49.00000000000033,1.5026776642242317,78.86839796687906,125.9015508743959,69.04989794703341,0.0,0,0.0,,,,,,
50.00000000000033,1.5170388692586698,78.13101833355006,125.22607232081215,70.21418157860552,0.0,0,0.0,,,,,,
51.00000000000033,1.5311638965489884,77.39363870022106,124.5505937672284,71.37846521017762,0.0,0,0.0,,,,,,
51.533834516752194,1.5386988567930173,77.0,124.19,70.31691192864939,0.0,0,0.0,,,,,,
52.533834516752194,1.5531241585283093,76.26323521632021,123.51385086443206,68.32836819793057,0.0,0,0.0,,,,,,
53.533834516752194,1.5679754753865751,75.52647043264042,122.83770172886412,66.33982446721176,0.0,0,0.0,,,,,,
54.533834516752194,1.5832787356725957,74.78970564896063,122.16155259329618,64.35128073649294,0.0,0,0.0,,,,,,
55.533834516752194,1.599062309073827,74.05294086528085,121.48540345772824,62.362737005774115,0.0,0,0.0,,,,,,
56.533834516752194,1.6153573230962885,73.31617608160106,120.8092543221603,60.37419327505529,0.0,0,0.0,,,,,,
57.533834516752194,1.632198032485249,72.57941129792127,120.13310518659236,58.38564954433647,0.0,0,0.0,,,,,,
58.533834516752194,1.6496222526458726,71.84264651424148,119.45695605102442,56.39710581361764,0.0,0,0.0,,,,,,
59.533834516752194,1.6676718708465212,71.10588173056169,118.78080691545648,54.40856208289882,0.0,0,0.0,,,,,,
60.533834516752194,1.686393452579187,70.3691169468819,118.10465777988854,52.420018352179994,0.0,0,0.0,,,,,,
61.533834516752194,1.705838965154416,69.63235216320211,117.4285086443206,50.43147462146117,0.0,0,0.0,,,,,,
62.533834516752194,1.726066646824301,68.89558737952233,116.75235950875266,48.442930890742346,0.0,0,0.0,,,,,,
63.533834516752194,1.7471420580274932,68.15882259584254,116.07621037318472,46.45438716002352,0.0,0,0.0,,,,,,
64.5338345167522,1.7691393625551695,67.42205781216275,115.40006123761678,44.4658434293047,0.0,0,0.0,,,,,,
65.5338345167522,1.7921429017423607,66.68529302848296,114.72391210204884,42.477299698585874,0.0,0,0.0,,,,,,
66.5338345167522,1.8162491459639802,65.94852824480317,114.0477629664809,40.48875596786705,0.0,0,0.0,,,,,,
67.5338345167522,1.8415691374191037,65.21176346112338,113.37161383091296,38.500212237148226,0.0,0,-0.0,,,,,,
68.5338345167522,1.8682315804904466,64.4749986774436,112.69546469534502,36.5116685064294,0.0,0,-0.0,,,,,,
69.5338345167522,1.8963867972172173,63.73823389376381,112.01931555977708,34.52312477571058,0.0,0,-0.0,,,,,,
70.5338345167522,1.9262118557324543,63.00146911008403,111.34316642420914,32.534581044991754,0.0,0,-0.0,,,,,,
71.5338345167522,1.9579173153810796,62.26470432640425,110.6670172886412,30.54603731427293,0.0,0,-0.0,,,,,,
72.5338345167522,1.9917562412391205,61.52793954272447,109.99086815307327,28.557493583554105,0.0,0,-0.0,,,,,,
73.5338345167522,2.028036470387366,60.79117475904469,109.31471901750533,26.56894985283528,0.0,0,-0.0,,,,,,
74.5338345167522,2.0671376469687375,60.054409975364905,108.63856988193739,24.580406122116457,0.0,0,-0.0,,,,,,
75.5338345167522,2.1095354383623617,59.31764519168512,107.96242074636945,22.591862391397633,0.0,0,0.0,,,,,,
76.5338345167522,2.1558368995737127,58.58088040800534,107.2862716108015,20.60331866067881,0.0,0,0.0,,,,,,
77.5338345167522,2.206833769051259,57.84411562432556,106.61012247523357,18.614774929959985,0.0,0,0.0,,,,,,
78.5338345167522,2.263585837725677,57.10735084064578,105.93397333966563,16.62623119924116,0.0,0,0.0,,,,,,
79.5338345167522,2.327557344984689,56.370586056966,105.25782420409769,14.637687468522339,0.0,0,0.0,,,,,,
80.5338345167522,2.4008527740096737,55.633821273286216,104.58167506852975,12.649143737803517,0.0,0,0.0,,,,,,
81.39411080482438,2.4706544918480757,55.0,104.0,12.0,0.0,0,0.0,,,,,,
